   0.0000   2760620
   0.0050   3125570
   0.0100   3312880
   0.0150   3256850
   0.0200   3029440
   0.0250   2601860
   0.0300   2042190
   0.0350   1515630
   0.0400   1148300
   0.0450    943394
   0.0500    860034
   0.0550    819759
   0.0600    804899
   0.0650    813890
   0.0700    838135
   0.0750    858777
   0.0800    891412
   0.0850    937232
   0.0900    967331
   0.0950   1002810
   0.1000   1039740
   0.1050   1072850
   0.1100   1100100
   0.1150   1134470
   0.1200   1175130
   0.1250   1213230
   0.1300   1247480
   0.1350   1283090
   0.1400   1314990
   0.1450   1354520
   0.1500   1377180
   0.1550   1402160
   0.1600   1426010
   0.1650   1446910
   0.1700   1467390
   0.1750   1494930
   0.1800   1515220
   0.1850   1532850
   0.1900   1538770
   0.1950   1535780
   0.2000   1510280
   0.2050   1462910
   0.2100   1382590
   0.2150   1272910
   0.2200   1147400
   0.2250   1010500
   0.2300    864592
   0.2350    768007
   0.2400    635408
   0.2450    498265
   0.2500    376315
   0.2550    280962
   0.2600    216092
   0.2650    176220
   0.2700    152342
   0.2750    135607
   0.2800    120448
   0.2850    105342
   0.2900     90889
   0.2950     77556
   0.3000     68001
   0.3050     62495
   0.3100     57662
   0.3150     55083
   0.3200     51959
   0.3250     48011
   0.3300     42897
   0.3350     37876
   0.3400     34017
   0.3450     31022
   0.3500     29638
   0.3550     28418
   0.3600     27659
   0.3650     26361
   0.3700     24882
   0.3750     22784
   0.3800     20512
   0.3850     18429
   0.3900     17458
   0.3950     16443
   0.4000     15886
   0.4050     15808
   0.4100     15506
   0.4150     14637
   0.4200     13805
   0.4250     12523
   0.4300     11216
   0.4350     10449
   0.4400      9814
   0.4450      9670
   0.4500      9466
   0.4550      9580
   0.4600      9340
   0.4650      8894
   0.4700      8456
   0.4750      7516
   0.4800      6911
   0.4850      6482
   0.4900      6080
   0.4950      6106
   0.5000      6127
   0.5050      6361
   0.5100      6054
   0.5150      5728
   0.5200      5347
   0.5250      4689
   0.5300      4404
   0.5350      4080
   0.5400      3880
   0.5450      3901
   0.5500      3977
   0.5550      4069
   0.5600      3994
   0.5650      3890
   0.5700      3706
   0.5750      3240
   0.5800      2935
   0.5850      2836
   0.5900      2630
   0.5950      2550
   0.6000      2693
   0.6050      2733
   0.6100      2760
   0.6150      2573
   0.6200      2493
   0.6250      2385
   0.6300      2143
   0.6350      1941
   0.6400      1860
   0.6450      1718
   0.6500      1790
   0.6550      1813
   0.6600      1923
   0.6650      1936
   0.6700      1810
   0.6750      1696
   0.6800      1504
   0.6850      1369
   0.6900      1297
   0.6950      1215
   0.7000      1356
   0.7050      1235
   0.7100      1262
   0.7150      1361
   0.7200      1352
   0.7250      1276
   0.7300      1153
   0.7350      1012
   0.7400       903
   0.7450       872
   0.7500       909
   0.7550       905
   0.7600       972
   0.7650       987
   0.7700       967
   0.7750       909
   0.7800       886
   0.7850       745
   0.7900       682
   0.7950       627
   0.8000       618
   0.8050       613
   0.8100       691
   0.8150       661
   0.8200       693
   0.8250       660
   0.8300       646
   0.8350       545
   0.8400       499
   0.8450       516
   0.8500       458
   0.8550       419
   0.8600       498
   0.8650       496
   0.8700       510
   0.8750       480
   0.8800       456
   0.8850       418
   0.8900       388
   0.8950       366
   0.9000       342
   0.9050       335
   0.9100       350
   0.9150       325
   0.9200       348
   0.9250       358
   0.9300       337
   0.9350       362
   0.9400       346
   0.9450       253
   0.9500       246
   0.9550       210
   0.9600       227
   0.9650       239
   0.9700       219
   0.9750       263
   0.9800       246
   0.9850       280
   0.9900       245
   0.9950       218
   1.0000       212
   1.0050       182
   1.0100       193
   1.0150       183
   1.0200       170
   1.0250       192
   1.0300       198
   1.0350       185
   1.0400       165
   1.0450       177
   1.0500       167
   1.0550       144
   1.0600       142
   1.0650       144
   1.0700       168
   1.0750       150
   1.0800       159
   1.0850       148
   1.0900       151
   1.0950       136
   1.1000       102
   1.1050       120
   1.1100       104
   1.1150        85
   1.1200       104
   1.1250       101
   1.1300        99
   1.1350       106
   1.1400       119
   1.1450       103
   1.1500        94
   1.1550       101
   1.1600        98
   1.1650        86
   1.1700        73
   1.1750        64
   1.1800        89
   1.1850        76
   1.1900        89
   1.1950        76
   1.2000        65
   1.2050        65
   1.2100        71
   1.2150        56
   1.2200        52
   1.2250        70
   1.2300        61
   1.2350        72
   1.2400        71
   1.2450        63
   1.2500        69
   1.2550        72
   1.2600        60
   1.2650        66
   1.2700        42
   1.2750        52
   1.2800        40
   1.2850        62
   1.2900        56
   1.2950        53
   1.3000        56
   1.3050        62
   1.3100        49
   1.3150        37
   1.3200        31
   1.3250        37
   1.3300        42
   1.3350        38
   1.3400        43
   1.3450        29
   1.3500        38
   1.3550        41
   1.3600        43
   1.3650        29
   1.3700        34
   1.3750        20
   1.3800        26
   1.3850        35
   1.3900        34
   1.3950        28
   1.4000        25
   1.4050        34
   1.4100        29
   1.4150        25
   1.4200        25
   1.4250        15
   1.4300        22
   1.4350        18
   1.4400        32
   1.4450        24
   1.4500        19
   1.4550        24
   1.4600        22
   1.4650        13
   1.4700        32
   1.4750        23
   1.4800        20
   1.4850        19
   1.4900        23
   1.4950        21
   1.5000        10
   1.5050        13
   1.5100        21
   1.5150        18
   1.5200        17
   1.5250        21
   1.5300        11
   1.5350         7
   1.5400        17
   1.5450        14
   1.5500        13
   1.5550        22
   1.5600        13
   1.5650        12
   1.5700        16
   1.5750        10
   1.5800        13
   1.5850         9
   1.5900        11
   1.5950        16
   1.6000        11
   1.6050        15
   1.6100        12
   1.6150         5
   1.6200        15
   1.6250        13
   1.6300         4
   1.6350        13
   1.6400        11
   1.6450        16
   1.6500        10
   1.6550        14
   1.6600         9
   1.6650         9
   1.6700        12
   1.6750         9
   1.6800        10
   1.6850         7
   1.6900        10
   1.6950        10
   1.7000        10
   1.7050        12
   1.7100         7
   1.7150         6
   1.7200         5
   1.7250         8
   1.7300         9
   1.7350         5
   1.7400         3
   1.7450         5
   1.7500         7
   1.7550         3
   1.7600         5
   1.7650         6
   1.7700        11
   1.7750        10
   1.7800         8
   1.7850         4
   1.7900         5
   1.7950         3
   1.8000         5
   1.8050         2
   1.8100         4
   1.8150         1
   1.8200         5
   1.8250         9
   1.8300         7
   1.8350         4
   1.8400         3
   1.8450         7
   1.8500         7
   1.8550         2
   1.8600         4
   1.8650         2
   1.8700         4
   1.8750         4
   1.8800         5
   1.8850         4
   1.8900         3
   1.8950         2
   1.9000         4
   1.9050         2
   1.9100         4
   1.9150         3
   1.9200         4
   1.9250         4
   1.9300         7
   1.9350         3
   1.9400         1
   1.9450         2
   1.9500         4
   1.9550         3
   1.9600         5
   1.9650         4
   1.9700         1
   1.9750         2
   1.9800         1
   1.9850         0
   1.9900         5
   1.9950         6
   2.0000         1
   2.0050         1
   2.0100         1
   2.0150         3
   2.0200         1
   2.0250         2
   2.0300         4
   2.0350         4
   2.0400         3
   2.0450         8
   2.0500         2
   2.0550         2
   2.0600         3
   2.0650         2
   2.0700         0
   2.0750         3
   2.0800         0
   2.0850         1
   2.0900         4
   2.0950         2
   2.1000         2
   2.1050         1
   2.1100         1
   2.1150         5
   2.1200         0
   2.1250         3
   2.1300         4
   2.1350         2
   2.1400         2
   2.1450         1
   2.1500         1
   2.1550         3
   2.1600         3
   2.1650         2
   2.1700         1
   2.1750         0
   2.1800         0
   2.1850         1
   2.1900         0
   2.1950         2
   2.2000         1
   2.2050         1
   2.2100         2
   2.2150         2
   2.2200         3
   2.2250         1
   2.2300         1
   2.2350         1
   2.2400         1
   2.2450         3
   2.2500         0
   2.2550         2
   2.2600         3
   2.2650         0
   2.2700         0
   2.2750         0
   2.2800         0
   2.2850         1
   2.2900         2
   2.2950         0
   2.3000         0
   2.3050         1
   2.3100         0
   2.3150         1
   2.3200         0
   2.3250         1
   2.3300         2
   2.3350         0
   2.3400         2
   2.3450         1
   2.3500         1
   2.3550         1
   2.3600         1
   2.3650         2
   2.3700         1
   2.3750         1
   2.3800         0
   2.3850         0
   2.3900         0
   2.3950         3
   2.4000         2
   2.4050         1
   2.4100         2
   2.4150         2
   2.4200         1
   2.4250         2
   2.4300         1
   2.4350         1
   2.4400         1
   2.4450         0
   2.4500         2
   2.4550         0
   2.4600         1
   2.4650         0
   2.4700         0
   2.4750         2
   2.4800         0
   2.4850         1
   2.4900         0
   2.4950         2
   2.5000         0
