   0.0000    382687
   0.0050    304498
   0.0100    247762
   0.0150    212161
   0.0200    186921
   0.0250    169983
   0.0300    161185
   0.0350    155878
   0.0400    149075
   0.0450    139837
   0.0500    132093
   0.0550    125968
   0.0600    114901
   0.0650    109096
   0.0700    107341
   0.0750    103428
   0.0800    101631
   0.0850    101661
   0.0900     99785
   0.0950     97469
   0.1000     93667
   0.1050     90915
   0.1100     87279
   0.1150     81015
   0.1200     73411
   0.1250     68105
   0.1300     63217
   0.1350     58442
   0.1400     52838
   0.1450     46374
   0.1500     40300
   0.1550     35430
   0.1600     32026
   0.1650     29418
   0.1700     26746
   0.1750     24341
   0.1800     22118
   0.1850     19721
   0.1900     17716
   0.1950     15716
   0.2000     13875
   0.2050     12150
   0.2100     10410
   0.2150      8573
   0.2200      7102
   0.2250      5861
   0.2300      4790
   0.2350      3815
   0.2400      3065
   0.2450      2509
   0.2500      2109
   0.2550      1705
   0.2600      1377
   0.2650      1211
   0.2700      1114
   0.2750       956
   0.2800       821
   0.2850       754
   0.2900       732
   0.2950       638
   0.3000       558
   0.3050       571
   0.3100       468
   0.3150       462
   0.3200       426
   0.3250       425
   0.3300       384
   0.3350       358
   0.3400       304
   0.3450       321
   0.3500       286
   0.3550       297
   0.3600       269
   0.3650       267
   0.3700       220
   0.3750       238
   0.3800       241
   0.3850       232
   0.3900       224
   0.3950       199
   0.4000       209
   0.4050       209
   0.4100       171
   0.4150       170
   0.4200       151
   0.4250       146
   0.4300       130
   0.4350       134
   0.4400       139
   0.4450       147
   0.4500       138
   0.4550       140
   0.4600       111
   0.4650       126
   0.4700       113
   0.4750       107
   0.4800        86
   0.4850       111
   0.4900        93
   0.4950       108
   0.5000        99
   0.5050       121
   0.5100        81
   0.5150        96
   0.5200        91
   0.5250        73
   0.5300       102
   0.5350        79
   0.5400        94
   0.5450        75
   0.5500        64
   0.5550        69
   0.5600        72
   0.5650        61
   0.5700        69
   0.5750        55
   0.5800        57
   0.5850        65
   0.5900        75
   0.5950        62
   0.6000        57
   0.6050        51
   0.6100        62
   0.6150        63
   0.6200        49
   0.6250        51
   0.6300        58
   0.6350        56
   0.6400        46
   0.6450        57
   0.6500        63
   0.6550        63
   0.6600        55
   0.6650        51
   0.6700        37
   0.6750        70
   0.6800        55
   0.6850        34
   0.6900        45
   0.6950        41
   0.7000        59
   0.7050        61
   0.7100        50
   0.7150        69
   0.7200        47
   0.7250        48
   0.7300        37
   0.7350        36
   0.7400        37
   0.7450        49
   0.7500        38
   0.7550        36
   0.7600        29
   0.7650        26
   0.7700        29
   0.7750        22
   0.7800        24
   0.7850        25
   0.7900        28
   0.7950        28
   0.8000        29
   0.8050        21
   0.8100        28
   0.8150        29
   0.8200        21
   0.8250        22
   0.8300        25
   0.8350        25
   0.8400        15
   0.8450        22
   0.8500        22
   0.8550        23
   0.8600        11
   0.8650        14
   0.8700        24
   0.8750        30
   0.8800        22
   0.8850        14
   0.8900        16
   0.8950        16
   0.9000        11
   0.9050        19
   0.9100        16
   0.9150        17
   0.9200        19
   0.9250         9
   0.9300        16
   0.9350        10
   0.9400        17
   0.9450         9
   0.9500        12
   0.9550         9
   0.9600        13
   0.9650        12
   0.9700        29
   0.9750        14
   0.9800         9
   0.9850        10
   0.9900        11
   0.9950        14
   1.0000        12
   1.0050        10
   1.0100        12
   1.0150         9
   1.0200        17
   1.0250        10
   1.0300         9
   1.0350         5
   1.0400         6
   1.0450        14
   1.0500        11
   1.0550         9
   1.0600        13
   1.0650         9
   1.0700         9
   1.0750         8
   1.0800         6
   1.0850         9
   1.0900        11
   1.0950        10
   1.1000        15
   1.1050        13
   1.1100         6
   1.1150         3
   1.1200         8
   1.1250         8
   1.1300         3
   1.1350         9
   1.1400        13
   1.1450         7
   1.1500         6
   1.1550         9
   1.1600         7
   1.1650         5
   1.1700         6
   1.1750         4
   1.1800         8
   1.1850         3
   1.1900         6
   1.1950         2
   1.2000         7
   1.2050         8
   1.2100         8
   1.2150         8
   1.2200         6
   1.2250         3
   1.2300         4
   1.2350         5
   1.2400         4
   1.2450         2
   1.2500         4
   1.2550         3
   1.2600         2
   1.2650         6
   1.2700         2
   1.2750         6
   1.2800         1
   1.2850         3
   1.2900         3
   1.2950         5
   1.3000         5
   1.3050         3
   1.3100         7
   1.3150         4
   1.3200         4
   1.3250         5
   1.3300         1
   1.3350         0
   1.3400         4
   1.3450         2
   1.3500         1
   1.3550         3
   1.3600         3
   1.3650         1
   1.3700         1
   1.3750         3
   1.3800         2
   1.3850         3
   1.3900         2
   1.3950         5
   1.4000         1
   1.4050         4
   1.4100         2
   1.4150         2
   1.4200         1
   1.4250         2
   1.4300         3
   1.4350         2
   1.4400         4
   1.4450         0
   1.4500         6
   1.4550         3
   1.4600         1
   1.4650         3
   1.4700         3
   1.4750         4
   1.4800         0
   1.4850         0
   1.4900         3
   1.4950         0
   1.5000         2
   1.5050         1
   1.5100         1
   1.5150         0
   1.5200         4
   1.5250         2
   1.5300         3
   1.5350         1
   1.5400         2
   1.5450         0
   1.5500         2
   1.5550         1
   1.5600         0
   1.5650         0
   1.5700         1
   1.5750         2
   1.5800         1
   1.5850         6
   1.5900         0
   1.5950         1
   1.6000         1
   1.6050         1
   1.6100         3
   1.6150         2
   1.6200         2
   1.6250         0
   1.6300         0
   1.6350         3
   1.6400         2
   1.6450         1
   1.6500         0
   1.6550         0
   1.6600         0
   1.6650         2
   1.6700         0
   1.6750         1
   1.6800         0
   1.6850         0
   1.6900         0
   1.6950         0
   1.7000         2
   1.7050         1
   1.7100         1
   1.7150         2
   1.7200         2
   1.7250         0
   1.7300         3
   1.7350         2
   1.7400         0
   1.7450         0
   1.7500         1
   1.7550         0
   1.7600         4
   1.7650         2
   1.7700         1
   1.7750         0
   1.7800         2
   1.7850         0
   1.7900         0
   1.7950         1
   1.8000         0
   1.8050         0
   1.8100         2
   1.8150         0
   1.8200         1
   1.8250         0
   1.8300         0
   1.8350         0
   1.8400         0
   1.8450         2
   1.8500         0
   1.8550         0
   1.8600         0
   1.8650         2
   1.8700         1
   1.8750         1
   1.8800         0
   1.8850         1
   1.8900         0
   1.8950         0
   1.9000         1
   1.9050         1
   1.9100         1
   1.9150         0
   1.9200         0
   1.9250         2
   1.9300         0
   1.9350         0
   1.9400         0
   1.9450         1
   1.9500         0
   1.9550         0
   1.9600         1
   1.9650         1
   1.9700         0
   1.9750         2
   1.9800         0
   1.9850         0
   1.9900         1
   1.9950         0
   2.0000         0
   2.0050         0
   2.0100         0
   2.0150         1
   2.0200         1
   2.0250         0
   2.0300         1
   2.0350         0
   2.0400         0
   2.0450         0
   2.0500         0
   2.0550         0
   2.0600         0
   2.0650         1
   2.0700         0
   2.0750         0
   2.0800         1
   2.0850         1
   2.0900         0
   2.0950         0
   2.1000         0
   2.1050         0
   2.1100         2
   2.1150         0
   2.1200         2
   2.1250         0
   2.1300         0
   2.1350         0
   2.1400         0
   2.1450         0
   2.1500         0
   2.1550         0
   2.1600         1
   2.1650         0
   2.1700         0
   2.1750         0
   2.1800         0
   2.1850         0
   2.1900         0
   2.1950         1
   2.2000         0
   2.2050         1
   2.2100         1
   2.2150         1
   2.2200         0
   2.2250         0
   2.2300         0
   2.2350         1
   2.2400         0
   2.2450         1
   2.2500         0
   2.2550         1
   2.2600         0
   2.2650         0
   2.2700         0
   2.2750         0
   2.2800         0
   2.2850         0
   2.2900         0
   2.2950         1
   2.3000         0
   2.3050         0
   2.3100         0
   2.3150         0
   2.3200         0
   2.3250         0
   2.3300         0
   2.3350         1
   2.3400         1
   2.3450         0
   2.3500         0
   2.3550         0
   2.3600         2
   2.3650         0
   2.3700         0
   2.3750         0
   2.3800         0
   2.3850         0
   2.3900         0
   2.3950         0
   2.4000         0
   2.4050         0
   2.4100         0
   2.4150         0
   2.4200         0
   2.4250         0
   2.4300         0
   2.4350         0
   2.4400         0
   2.4450         0
   2.4500         0
   2.4550         0
   2.4600         0
   2.4650         2
   2.4700         0
   2.4750         0
   2.4800         0
   2.4850         0
   2.4900         0
   2.4950         0
   2.5000         0
